 TITLE="BOTTOM HOLE PRESSURE, WELL 01"                                 
 VARIABLES="Time [days]","Well BHP [psi]",
 ZONE F=BLOCK, T="", I =        1055
  0.100000000000000       0.300000000000000       0.700000000000000     
   1.50000000000000        3.10000000000000        6.30000000000000     
   12.7000000000000        22.7000000000000        32.7000000000000     
   42.7000000000000        52.7000000000000        62.7000000000000     
   72.7000000000000        82.7000000000000        92.7000000000000     
   102.700000000000        112.700000000000        122.700000000000     
   132.700000000000        142.700000000000        152.700000000000     
   162.700000000000        172.700000000000        182.700000000000     
   192.700000000000        202.700000000000        212.700000000000     
   222.700000000000        232.700000000000        242.700000000000     
   252.700000000000        262.700000000000        272.700000000000     
   282.700000000000        292.700000000000        302.700000000000     
   312.700000000000        322.700000000000        332.700000000000     
   342.700000000000        352.700000000000        359.020000000000     
   365.100000000000        375.100000000000        385.100000000000     
   395.100000000000        405.100000000000        415.100000000000     
   425.100000000000        435.100000000000        445.100000000000     
   455.100000000000        465.100000000000        475.100000000000     
   485.100000000000        495.100000000000        505.100000000000     
   515.100000000000        525.100000000000        535.100000000000     
   545.100000000000        555.100000000000        565.100000000000     
   575.100000000000        585.100000000000        595.100000000000     
   605.100000000000        615.100000000000        625.100000000000     
   635.100000000000        645.100000000000        655.100000000000     
   665.100000000000        675.100000000000        685.100000000000     
   695.100000000000        705.100000000000        715.100000000000     
   722.750000000000        730.100000000000        732.550000000000     
   734.770000000000        737.030000000000        739.560000000000     
   743.220000000000        748.480000000000        752.670000000000     
   757.370000000000        764.680000000000        769.150000000000     
   774.320000000000        779.420000000000        784.750000000000     
   790.530000000000        796.940000000000        804.010000000000     
   808.170000000000        812.390000000000        816.650000000000     
   820.960000000000        825.300000000000        829.680000000000     
   834.080000000000        838.500000000000        842.950000000000     
   847.420000000000        851.920000000000        860.750000000000     
   869.340000000000        877.970000000000        887.010000000000     
   897.010000000000        907.010000000000        916.820000000000     
   926.090000000000        934.980000000000        943.610000000000     
   952.040000000000        960.300000000000        968.440000000000     
   976.480000000000        984.420000000000        992.280000000000     
   1000.10000000000        1007.80000000000        1015.50000000000     
   1023.10000000000        1030.60000000000        1038.10000000000     
   1045.60000000000        1053.00000000000        1060.40000000000     
   1067.80000000000        1075.80000000000        1083.70000000000     
   1089.50000000000        1095.10000000000        1096.00000000000     
   1097.30000000000        1099.90000000000        1102.50000000000     
   1104.50000000000        1107.30000000000        1110.70000000000     
   1114.20000000000        1118.40000000000        1122.60000000000     
   1126.80000000000        1131.10000000000        1135.50000000000     
   1139.80000000000        1143.90000000000        1148.10000000000     
   1152.40000000000        1156.80000000000        1161.30000000000     
   1165.90000000000        1175.00000000000        1185.00000000000     
   1195.00000000000        1205.00000000000        1215.00000000000     
   1225.00000000000        1235.00000000000        1245.00000000000     
   1255.00000000000        1265.00000000000        1275.00000000000     
   1285.00000000000        1295.00000000000        1305.00000000000     
   1313.50000000000        1321.80000000000        1330.10000000000     
   1338.30000000000        1346.40000000000        1354.40000000000     
   1362.40000000000        1370.30000000000        1377.90000000000     
   1385.50000000000        1393.10000000000        1400.80000000000     
   1408.40000000000        1416.00000000000        1423.70000000000     
   1431.30000000000        1438.90000000000        1446.50000000000     
   1453.50000000000        1460.10000000000        1461.00000000000     
   1462.80000000000        1464.90000000000        1467.20000000000     
   1469.70000000000        1472.90000000000        1478.00000000000     
   1484.90000000000        1493.20000000000        1502.70000000000     
   1512.70000000000        1522.70000000000        1532.70000000000     
   1542.70000000000        1552.70000000000        1562.70000000000     
   1572.70000000000        1582.70000000000        1592.70000000000     
   1602.70000000000        1612.70000000000        1622.70000000000     
   1631.00000000000        1639.30000000000        1647.50000000000     
   1655.60000000000        1661.80000000000        1667.90000000000     
   1674.00000000000        1680.10000000000        1686.20000000000     
   1692.30000000000        1698.40000000000        1704.40000000000     
   1710.40000000000        1716.50000000000        1722.40000000000     
   1728.40000000000        1734.40000000000        1740.30000000000     
   1746.20000000000        1752.20000000000        1758.10000000000     
   1765.40000000000        1772.70000000000        1780.00000000000     
   1787.30000000000        1794.50000000000        1801.80000000000     
   1809.10000000000        1816.30000000000        1820.80000000000     
   1825.10000000000        1826.00000000000        1827.80000000000     
   1830.30000000000        1832.90000000000        1837.10000000000     
   1844.30000000000        1851.00000000000        1853.20000000000     
   1857.10000000000        1861.20000000000        1865.90000000000     
   1870.80000000000        1875.80000000000        1881.00000000000     
   1886.20000000000        1891.60000000000        1897.10000000000     
   1902.70000000000        1908.30000000000        1914.00000000000     
   1924.00000000000        1934.00000000000        1944.00000000000     
   1954.00000000000        1964.00000000000        1974.00000000000     
   1984.00000000000        1994.00000000000        2004.00000000000     
   2014.00000000000        2024.00000000000        2034.00000000000     
   2044.00000000000        2054.00000000000        2064.00000000000     
   2074.00000000000        2084.00000000000        2094.00000000000     
   2103.80000000000        2113.30000000000        2122.60000000000     
   2132.60000000000        2142.60000000000        2152.60000000000     
   2162.60000000000        2172.60000000000        2181.50000000000     
   2190.10000000000        2191.00000000000        2192.80000000000     
   2195.00000000000        2197.30000000000        2199.90000000000     
   2203.20000000000        2208.30000000000        2216.00000000000     
   2225.80000000000        2235.50000000000        2245.50000000000     
   2255.50000000000        2265.50000000000        2275.50000000000     
   2285.50000000000        2295.50000000000        2305.50000000000     
   2315.50000000000        2325.50000000000        2335.50000000000     
   2345.50000000000        2355.50000000000        2365.50000000000     
   2375.50000000000        2385.50000000000        2395.50000000000     
   2405.50000000000        2413.40000000000        2421.40000000000     
   2429.20000000000        2436.80000000000        2445.60000000000     
   2454.20000000000        2461.10000000000        2468.00000000000     
   2474.80000000000        2481.60000000000        2488.40000000000     
   2495.10000000000        2501.90000000000        2508.60000000000     
   2515.30000000000        2522.00000000000        2528.70000000000     
   2535.40000000000        2542.70000000000        2549.00000000000     
   2552.10000000000        2555.10000000000        2557.00000000000     
   2559.40000000000        2561.90000000000        2564.80000000000     
   2569.60000000000        2577.00000000000        2584.40000000000     
   2592.30000000000        2597.10000000000        2601.60000000000     
   2609.10000000000        2617.90000000000        2626.80000000000     
   2636.80000000000        2646.80000000000        2656.80000000000     
   2666.80000000000        2676.80000000000        2686.80000000000     
   2693.30000000000        2700.20000000000        2707.00000000000     
   2713.80000000000        2720.70000000000        2727.70000000000     
   2734.80000000000        2741.90000000000        2749.10000000000     
   2756.40000000000        2763.70000000000        2771.10000000000     
   2778.50000000000        2785.90000000000        2793.40000000000     
   2800.90000000000        2808.50000000000        2816.10000000000     
   2823.80000000000        2831.50000000000        2839.50000000000     
   2847.60000000000        2855.70000000000        2864.30000000000     
   2872.50000000000        2881.00000000000        2889.60000000000     
   2898.10000000000        2906.70000000000        2913.50000000000     
   2920.10000000000        2922.00000000000        2924.20000000000     
   2926.40000000000        2928.70000000000        2931.50000000000     
   2935.10000000000        2940.70000000000        2948.70000000000     
   2958.30000000000        2968.30000000000        2978.30000000000     
   2988.30000000000        2998.30000000000        3008.30000000000     
   3018.30000000000        3028.30000000000        3038.30000000000     
   3048.30000000000        3058.30000000000        3068.30000000000     
   3078.30000000000        3088.30000000000        3098.30000000000     
   3108.30000000000        3118.30000000000        3128.30000000000     
   3138.30000000000        3148.30000000000        3158.30000000000     
   3168.30000000000        3178.30000000000        3188.30000000000     
   3198.30000000000        3208.30000000000        3218.30000000000     
   3228.30000000000        3238.30000000000        3248.30000000000     
   3258.30000000000        3268.20000000000        3276.80000000000     
   3281.00000000000        3285.10000000000        3287.00000000000     
   3289.40000000000        3291.90000000000        3294.70000000000     
   3298.80000000000        3304.70000000000        3312.10000000000     
   3321.30000000000        3330.40000000000        3334.00000000000     
   3339.10000000000        3344.60000000000        3350.20000000000     
   3356.60000000000        3363.20000000000        3369.90000000000     
   3376.70000000000        3383.60000000000        3390.50000000000     
   3397.60000000000        3404.70000000000        3411.80000000000     
   3419.00000000000        3426.20000000000        3433.20000000000     
   3440.20000000000        3447.40000000000        3454.60000000000     
   3462.00000000000        3469.40000000000        3476.80000000000     
   3484.40000000000        3492.00000000000        3499.60000000000     
   3507.40000000000        3515.10000000000        3522.90000000000     
   3530.80000000000        3538.70000000000        3546.70000000000     
   3554.60000000000        3562.70000000000        3570.80000000000     
   3579.10000000000        3587.50000000000        3595.80000000000     
   3604.10000000000        3612.50000000000        3620.90000000000     
   3629.20000000000        3637.60000000000        3644.00000000000     
   3650.10000000000        3652.00000000000        3654.20000000000     
   3656.40000000000        3658.80000000000        3661.50000000000     
   3665.20000000000        3670.90000000000        3679.60000000000     
   3688.70000000000        3698.70000000000        3708.70000000000     
   3718.70000000000        3728.70000000000        3738.70000000000     
   3748.70000000000        3758.70000000000        3768.70000000000     
   3778.70000000000        3788.70000000000        3798.70000000000     
   3808.70000000000        3818.70000000000        3828.70000000000     
   3838.70000000000        3848.70000000000        3858.70000000000     
   3868.70000000000        3878.70000000000        3888.70000000000     
   3898.70000000000        3908.70000000000        3918.70000000000     
   3928.70000000000        3938.70000000000        3948.70000000000     
   3958.70000000000        3968.70000000000        3978.70000000000     
   3988.70000000000        3998.70000000000        4007.00000000000     
   4011.20000000000        4015.10000000000        4018.00000000000     
   4020.50000000000        4022.90000000000        4025.80000000000     
   4029.90000000000        4036.00000000000        4043.40000000000     
   4053.40000000000        4063.40000000000        4073.40000000000     
   4081.20000000000        4087.50000000000        4094.00000000000     
   4100.60000000000        4107.50000000000        4114.50000000000     
   4121.70000000000        4129.00000000000        4136.30000000000     
   4143.70000000000        4151.10000000000        4158.70000000000     
   4166.00000000000        4173.50000000000        4181.00000000000     
   4188.70000000000        4196.50000000000        4206.50000000000     
   4216.50000000000        4224.60000000000        4232.80000000000     
   4240.80000000000        4248.80000000000        4256.80000000000     
   4264.90000000000        4273.10000000000        4281.30000000000     
   4289.50000000000        4297.80000000000        4306.10000000000     
   4314.40000000000        4322.70000000000        4331.10000000000     
   4339.50000000000        4347.80000000000        4356.20000000000     
   4364.60000000000        4372.50000000000        4376.40000000000     
   4380.10000000000        4383.00000000000        4385.20000000000     
   4387.50000000000        4389.80000000000        4392.60000000000     
   4396.30000000000        4402.10000000000        4411.20000000000     
   4420.00000000000        4429.90000000000        4439.90000000000     
   4449.90000000000        4459.90000000000        4469.90000000000     
   4479.90000000000        4489.90000000000        4499.90000000000     
   4509.90000000000        4519.90000000000        4529.90000000000     
   4539.90000000000        4549.90000000000        4559.90000000000     
   4569.90000000000        4579.90000000000        4589.90000000000     
   4599.90000000000        4609.90000000000        4619.90000000000     
   4629.90000000000        4639.90000000000        4649.90000000000     
   4659.90000000000        4669.90000000000        4679.90000000000     
   4689.90000000000        4699.90000000000        4709.90000000000     
   4719.90000000000        4729.90000000000        4737.70000000000     
   4741.50000000000        4745.10000000000        4748.00000000000     
   4750.50000000000        4753.00000000000        4755.90000000000     
   4760.20000000000        4766.40000000000        4773.80000000000     
   4783.60000000000        4793.40000000000        4802.10000000000     
   4812.10000000000        4817.60000000000        4827.00000000000     
   4837.00000000000        4846.90000000000        4856.90000000000     
   4866.90000000000        4874.60000000000        4882.50000000000     
   4890.40000000000        4898.20000000000        4906.10000000000     
   4914.10000000000        4922.50000000000        4930.90000000000     
   4939.40000000000        4947.90000000000        4956.10000000000     
   4964.40000000000        4972.70000000000        4981.10000000000     
   4989.50000000000        4998.00000000000        5006.60000000000     
   5015.20000000000        5023.80000000000        5032.50000000000     
   5041.20000000000        5049.90000000000        5058.70000000000     
   5067.50000000000        5076.30000000000        5085.10000000000     
   5094.00000000000        5102.20000000000        5106.20000000000     
   5110.10000000000        5113.00000000000        5115.20000000000     
   5117.50000000000        5119.80000000000        5122.60000000000     
   5126.50000000000        5132.50000000000        5141.90000000000     
   5150.30000000000        5159.80000000000        5169.40000000000     
   5178.60000000000        5188.60000000000        5198.60000000000     
   5208.60000000000        5218.60000000000        5228.50000000000     
   5238.50000000000        5248.50000000000        5258.50000000000     
   5268.50000000000        5278.50000000000        5285.60000000000     
   5292.30000000000        5298.80000000000        5305.60000000000     
   5315.10000000000        5322.80000000000        5332.80000000000     
   5342.80000000000        5352.80000000000        5362.80000000000     
   5372.80000000000        5382.80000000000        5392.80000000000     
   5402.80000000000        5412.80000000000        5422.80000000000     
   5432.80000000000        5442.80000000000        5452.80000000000     
   5462.80000000000        5469.10000000000        5475.10000000000     
   5479.00000000000        5482.30000000000        5485.50000000000     
   5489.00000000000        5493.90000000000        5500.60000000000     
   5508.70000000000        5517.00000000000        5527.00000000000     
   5537.00000000000        5547.00000000000        5556.40000000000     
   5562.90000000000        5570.70000000000        5578.70000000000     
   5586.40000000000        5593.70000000000        5600.70000000000     
   5610.70000000000        5620.70000000000        5630.70000000000     
   5640.70000000000        5650.70000000000        5660.70000000000     
   5669.50000000000        5678.40000000000        5688.00000000000     
   5697.50000000000        5707.10000000000        5716.60000000000     
   5726.00000000000        5735.50000000000        5744.80000000000     
   5754.80000000000        5764.80000000000        5774.80000000000     
   5784.80000000000        5793.70000000000        5802.40000000000     
   5811.00000000000        5819.50000000000        5827.90000000000     
   5834.10000000000        5837.20000000000        5840.10000000000     
   5844.00000000000        5846.30000000000        5848.50000000000     
   5850.90000000000        5853.80000000000        5857.90000000000     
   5864.30000000000        5872.00000000000        5879.60000000000     
   5888.00000000000        5896.30000000000        5904.50000000000     
   5912.60000000000        5920.60000000000        5928.60000000000     
   5936.40000000000        5944.10000000000        5951.80000000000     
   5959.30000000000        5966.80000000000        5974.20000000000     
   5981.50000000000        5988.70000000000        5995.80000000000     
   6002.80000000000        6009.70000000000        6016.60000000000     
   6023.40000000000        6030.10000000000        6036.80000000000     
   6043.30000000000        6049.80000000000        6056.20000000000     
   6062.50000000000        6068.70000000000        6074.90000000000     
   6081.00000000000        6087.00000000000        6093.00000000000     
   6098.90000000000        6104.70000000000        6110.50000000000     
   6115.60000000000        6120.80000000000        6126.00000000000     
   6131.10000000000        6138.30000000000        6145.70000000000     
   6153.00000000000        6160.40000000000        6167.80000000000     
   6175.30000000000        6182.70000000000        6190.20000000000     
